#Rho(as) Ys_contr_120min Ys_contr_60min
#Short caption: MagAO 5-sigma post-processed [KLIP] detection limit curve for Ys imaging observation of beta Pic, 120min integration. 60 minute values are scaled by sqrt(t) from the original 120min value. (source: J. Males, personal communication)
0.202418   3.77E-04   5.33E-04
0.210292   3.31E-04   4.69E-04
0.218166   2.98E-04   4.22E-04
0.226040   2.84E-04   4.01E-04
0.233914   2.62E-04   3.70E-04
0.241788   2.38E-04   3.36E-04
0.249662   2.03E-04   2.88E-04
0.257536   1.66E-04   2.35E-04
0.265410   1.28E-04   1.81E-04
0.273284   1.04E-04   1.47E-04
0.281158   9.46E-05   1.34E-04
0.289032   9.34E-05   1.32E-04
0.296906   9.24E-05   1.31E-04
0.304780   8.79E-05   1.24E-04
0.312654   8.18E-05   1.16E-04
0.320528   7.60E-05   1.07E-04
0.328402   7.22E-05   1.02E-04
0.336276   7.14E-05   1.01E-04
0.344150   7.23E-05   1.02E-04
0.352024   7.20E-05   1.02E-04
0.359898   6.68E-05   9.45E-05
0.367772   5.89E-05   8.33E-05
0.375646   5.36E-05   7.58E-05
0.383520   5.40E-05   7.64E-05
0.391394   5.73E-05   8.10E-05
0.399268   5.37E-05   7.60E-05
0.407142   4.70E-05   6.65E-05
0.415016   3.90E-05   5.52E-05
0.422890   3.23E-05   4.57E-05
0.430764   2.78E-05   3.94E-05
0.438638   2.59E-05   3.67E-05
0.446512   2.58E-05   3.65E-05
0.454386   2.61E-05   3.69E-05
0.462260   2.54E-05   3.59E-05
0.470134   2.29E-05   3.23E-05
0.478008   1.98E-05   2.79E-05
0.485882   1.72E-05   2.44E-05
0.493756   1.63E-05   2.31E-05
0.501630   1.64E-05   2.33E-05
0.509504   1.66E-05   2.35E-05
0.517378   1.61E-05   2.28E-05
0.525252   1.45E-05   2.05E-05
0.533126   1.25E-05   1.77E-05
0.541000   1.10E-05   1.55E-05
0.548874   1.04E-05   1.47E-05
0.556748   1.07E-05   1.51E-05
0.564622   1.12E-05   1.58E-05
0.572496   1.11E-05   1.57E-05
0.580370   1.03E-05   1.45E-05
0.588244   9.03E-06   1.28E-05
0.596118   7.93E-06   1.12E-05
0.603992   7.50E-06   1.06E-05
0.611866   7.76E-06   1.10E-05
0.619740   8.42E-06   1.19E-05
0.627614   8.90E-06   1.26E-05
0.635488   8.65E-06   1.22E-05
0.643362   7.93E-06   1.12E-05
0.651236   7.07E-06   1.00E-05
0.659110   6.51E-06   9.21E-06
0.666984   6.15E-06   8.70E-06
0.674858   6.11E-06   8.65E-06
0.682732   6.13E-06   8.68E-06
0.690606   5.99E-06   8.47E-06
0.698480   5.48E-06   7.75E-06
0.706354   5.00E-06   7.08E-06
0.714228   4.61E-06   6.52E-06
0.722102   4.59E-06   6.48E-06
0.729976   4.73E-06   6.69E-06
0.737850   4.77E-06   6.74E-06
0.745724   4.49E-06   6.34E-06
0.753598   4.01E-06   5.67E-06
0.761472   3.63E-06   5.13E-06
0.769346   3.48E-06   4.92E-06
0.777220   3.41E-06   4.82E-06
0.785094   3.35E-06   4.73E-06
0.792968   3.19E-06   4.52E-06
0.800842   3.00E-06   4.25E-06
0.808716   2.73E-06   3.86E-06
0.816590   2.56E-06   3.63E-06
0.824464   2.56E-06   3.63E-06
0.832338   2.71E-06   3.83E-06
0.840212   2.82E-06   3.99E-06
0.848086   2.81E-06   3.98E-06
0.855960   2.63E-06   3.72E-06
0.863834   2.31E-06   3.27E-06
0.871708   2.00E-06   2.83E-06
0.879582   1.83E-06   2.58E-06
0.887456   1.83E-06   2.58E-06
0.895330   1.97E-06   2.78E-06
0.903204   2.07E-06   2.93E-06
0.911078   2.05E-06   2.90E-06
0.918952   1.91E-06   2.70E-06
0.926826   1.78E-06   2.52E-06
0.934700   1.76E-06   2.49E-06
0.942574   1.82E-06   2.58E-06
0.950448   1.92E-06   2.72E-06
0.958322   1.96E-06   2.77E-06
0.966196   1.89E-06   2.67E-06
0.974070   1.72E-06   2.44E-06
0.981944   1.56E-06   2.21E-06
0.989818   1.49E-06   2.10E-06
0.997692   1.50E-06   2.12E-06
1.005566   1.54E-06   2.18E-06
1.013440   1.58E-06   2.23E-06
1.021314   1.58E-06   2.23E-06
1.029188   1.55E-06   2.19E-06
1.037062   1.51E-06   2.13E-06
1.044936   1.47E-06   2.07E-06
1.052810   1.42E-06   2.00E-06
1.060684   1.39E-06   1.96E-06
1.068558   1.38E-06   1.95E-06
1.076432   1.36E-06   1.93E-06
1.084306   1.33E-06   1.88E-06
1.092180   1.31E-06   1.85E-06
1.100054   1.33E-06   1.89E-06
1.107928   1.37E-06   1.94E-06
1.115802   1.38E-06   1.96E-06
1.123676   1.36E-06   1.92E-06
1.131550   1.29E-06   1.82E-06
1.139424   1.23E-06   1.75E-06
1.147298   1.18E-06   1.67E-06
1.155172   1.15E-06   1.63E-06
1.163046   1.16E-06   1.64E-06
1.170920   1.20E-06   1.70E-06
1.178794   1.24E-06   1.76E-06
1.186668   1.23E-06   1.74E-06
1.194542   1.17E-06   1.66E-06
1.202416   1.09E-06   1.54E-06
1.210290   1.02E-06   1.44E-06
1.218164   9.81E-07   1.39E-06
1.226038   9.77E-07   1.38E-06
1.233912   1.01E-06   1.43E-06
1.241786   1.05E-06   1.49E-06
1.249660   1.07E-06   1.51E-06
1.257534   1.05E-06   1.48E-06
1.265408   1.01E-06   1.42E-06
1.273282   9.72E-07   1.37E-06
1.281156   9.77E-07   1.38E-06
1.289030   1.00E-06   1.41E-06
1.296904   1.01E-06   1.43E-06
1.304778   9.89E-07   1.40E-06
1.312652   9.40E-07   1.33E-06
1.320526   8.80E-07   1.24E-06
1.328400   8.37E-07   1.18E-06
1.336274   8.20E-07   1.16E-06
1.344148   8.25E-07   1.17E-06
1.352022   8.28E-07   1.17E-06
1.359896   8.27E-07   1.17E-06
1.367770   8.22E-07   1.16E-06
1.375644   8.13E-07   1.15E-06
1.383518   7.88E-07   1.11E-06
1.391392   7.58E-07   1.07E-06
1.399266   7.28E-07   1.03E-06
1.407140   7.06E-07   9.99E-07
1.415014   6.82E-07   9.65E-07
1.422888   6.66E-07   9.42E-07
1.430762   6.56E-07   9.28E-07
1.438636   6.55E-07   9.27E-07
1.446510   6.55E-07   9.26E-07
1.454384   6.51E-07   9.20E-07
1.462258   6.39E-07   9.03E-07
1.470132   6.14E-07   8.68E-07
1.478006   5.95E-07   8.41E-07
1.485880   5.88E-07   8.31E-07
1.493754   5.88E-07   8.31E-07
1.501628   5.89E-07   8.32E-07
1.509502   5.78E-07   8.17E-07
1.517376   5.68E-07   8.03E-07
1.525250   5.63E-07   7.97E-07
1.533124   5.68E-07   8.03E-07
1.540998   5.70E-07   8.06E-07
1.548872   5.64E-07   7.98E-07
1.556746   5.52E-07   7.81E-07
1.564620   5.41E-07   7.66E-07
1.572494   5.33E-07   7.54E-07
1.580368   5.34E-07   7.55E-07
1.588242   5.44E-07   7.69E-07
1.596116   5.49E-07   7.76E-07
1.603990   5.44E-07   7.69E-07
1.611864   5.28E-07   7.47E-07
1.619738   5.21E-07   7.37E-07
1.627612   5.21E-07   7.36E-07
1.635486   5.20E-07   7.36E-07
1.643360   5.06E-07   7.15E-07
1.651234   4.90E-07   6.93E-07
1.659108   4.77E-07   6.75E-07
1.666982   4.79E-07   6.77E-07
1.674856   4.80E-07   6.78E-07
1.682730   4.80E-07   6.78E-07
1.690604   4.82E-07   6.81E-07
1.698478   4.89E-07   6.92E-07
1.706352   4.91E-07   6.94E-07
1.714226   4.85E-07   6.85E-07
1.722100   4.71E-07   6.66E-07
1.729974   4.61E-07   6.52E-07
1.737848   4.54E-07   6.43E-07
1.745722   4.49E-07   6.34E-07
1.753596   4.47E-07   6.33E-07
1.761470   4.44E-07   6.28E-07
1.769344   4.46E-07   6.31E-07
1.777218   4.42E-07   6.26E-07
1.785092   4.36E-07   6.17E-07
1.792966   4.37E-07   6.19E-07
1.800840   4.45E-07   6.30E-07
1.808714   4.53E-07   6.40E-07
1.816588   4.54E-07   6.43E-07
1.824462   4.46E-07   6.31E-07
1.832336   4.36E-07   6.16E-07
1.840210   4.16E-07   5.88E-07
1.848084   4.08E-07   5.78E-07
1.855958   4.02E-07   5.68E-07
1.863832   4.06E-07   5.75E-07
1.871706   4.03E-07   5.70E-07
1.879580   4.04E-07   5.71E-07
1.887454   4.09E-07   5.79E-07
1.895328   4.19E-07   5.93E-07
1.903202   4.25E-07   6.01E-07
1.911076   4.20E-07   5.94E-07
1.918950   4.12E-07   5.83E-07
1.926824   4.05E-07   5.73E-07
1.934698   4.03E-07   5.70E-07
1.942572   4.05E-07   5.72E-07
1.950446   4.09E-07   5.79E-07
1.958320   4.14E-07   5.86E-07
1.966194   4.18E-07   5.91E-07
1.974068   4.19E-07   5.93E-07
1.981942   4.14E-07   5.85E-07
1.989816   4.04E-07   5.71E-07
1.997690   3.95E-07   5.59E-07
2.005564   4.00E-07   5.66E-07
2.013438   4.13E-07   5.84E-07
2.021312   4.22E-07   5.97E-07
2.029186   4.21E-07   5.95E-07
2.037060   4.17E-07   5.89E-07
2.044934   4.12E-07   5.82E-07
2.052808   4.07E-07   5.76E-07
2.060682   4.00E-07   5.65E-07
2.068556   3.98E-07   5.63E-07
2.076430   4.00E-07   5.66E-07
2.084304   4.04E-07   5.72E-07
2.092178   4.07E-07   5.76E-07
2.100052   4.11E-07   5.81E-07
2.107926   4.10E-07   5.79E-07
2.115800   4.04E-07   5.71E-07
2.123674   3.99E-07   5.64E-07
2.131548   4.00E-07   5.65E-07
2.139422   3.98E-07   5.62E-07
2.147296   3.90E-07   5.52E-07
2.155170   3.81E-07   5.39E-07
2.163044   3.76E-07   5.31E-07
2.170918   3.69E-07   5.22E-07
2.178792   3.60E-07   5.10E-07
2.186666   3.57E-07   5.05E-07
2.194540   3.58E-07   5.06E-07
2.202414   3.59E-07   5.07E-07
2.210288   3.55E-07   5.02E-07
2.218162   3.49E-07   4.94E-07
2.226036   3.46E-07   4.89E-07
2.233910   3.44E-07   4.87E-07
2.241784   3.45E-07   4.88E-07
2.249658   3.47E-07   4.90E-07
2.257532   3.48E-07   4.92E-07
2.265406   3.47E-07   4.91E-07
2.273280   3.42E-07   4.83E-07
2.281154   3.37E-07   4.77E-07
2.289028   3.31E-07   4.68E-07
2.296902   3.32E-07   4.70E-07
2.304776   3.33E-07   4.70E-07
2.312650   3.36E-07   4.75E-07
2.320524   3.38E-07   4.78E-07
2.328398   3.33E-07   4.71E-07
2.336272   3.23E-07   4.57E-07
2.344146   3.13E-07   4.42E-07
2.352020   3.09E-07   4.37E-07
2.359894   3.08E-07   4.35E-07
2.367768   3.08E-07   4.36E-07
2.375642   3.08E-07   4.35E-07
2.383516   3.07E-07   4.35E-07
2.391390   3.09E-07   4.38E-07
2.399264   3.11E-07   4.40E-07
2.407138   3.08E-07   4.35E-07
2.415012   2.96E-07   4.19E-07
2.422886   2.87E-07   4.06E-07
2.430760   2.86E-07   4.04E-07
2.438634   2.89E-07   4.09E-07
2.446508   2.91E-07   4.12E-07
2.454382   2.91E-07   4.12E-07
2.462256   2.93E-07   4.14E-07
2.470130   2.96E-07   4.18E-07
2.478004   2.99E-07   4.23E-07
2.485878   3.03E-07   4.28E-07
2.493752   3.11E-07   4.39E-07
2.501626   3.18E-07   4.50E-07
2.509500   3.23E-07   4.57E-07
2.517374   3.21E-07   4.54E-07
2.525248   3.19E-07   4.51E-07
2.533122   3.18E-07   4.50E-07
2.540996   3.22E-07   4.55E-07
2.548870   3.25E-07   4.59E-07
2.556744   3.24E-07   4.58E-07
2.564618   3.20E-07   4.52E-07
2.572492   3.11E-07   4.39E-07
2.580366   2.99E-07   4.23E-07
2.588240   2.85E-07   4.04E-07
2.596114   2.77E-07   3.91E-07
2.603988   2.71E-07   3.84E-07
2.611862   2.73E-07   3.85E-07
2.619736   2.78E-07   3.94E-07
2.627610   2.87E-07   4.06E-07
2.635484   2.93E-07   4.15E-07
2.643358   2.95E-07   4.17E-07
2.651232   2.96E-07   4.18E-07
2.659106   2.96E-07   4.19E-07
2.666980   2.96E-07   4.18E-07
2.674854   2.93E-07   4.15E-07
2.682728   2.87E-07   4.06E-07
2.690602   2.78E-07   3.93E-07
2.698476   2.69E-07   3.81E-07
2.706350   2.67E-07   3.78E-07
2.714224   2.73E-07   3.86E-07
2.722098   2.78E-07   3.93E-07
2.729972   2.81E-07   3.98E-07
2.737846   2.83E-07   4.00E-07
2.745720   2.86E-07   4.04E-07
2.753594   2.87E-07   4.06E-07
2.761468   2.85E-07   4.03E-07
2.769342   2.79E-07   3.95E-07
2.777216   2.76E-07   3.90E-07
2.785090   2.77E-07   3.91E-07
2.792964   2.79E-07   3.95E-07
2.800838   2.82E-07   3.99E-07
2.808712   2.81E-07   3.97E-07
2.816586   2.80E-07   3.96E-07
2.824460   2.79E-07   3.94E-07
2.832334   2.75E-07   3.89E-07
2.840208   2.68E-07   3.79E-07
2.848082   2.60E-07   3.68E-07
2.855956   2.56E-07   3.61E-07
2.863830   2.55E-07   3.60E-07
2.871704   2.57E-07   3.63E-07
2.879578   2.63E-07   3.72E-07
2.887452   2.72E-07   3.85E-07
2.895326   2.79E-07   3.94E-07
2.903200   2.83E-07   4.00E-07
2.911074   2.80E-07   3.97E-07
2.918948   2.74E-07   3.87E-07
2.926822   2.67E-07   3.77E-07
2.934696   2.63E-07   3.72E-07
2.942570   2.62E-07   3.71E-07
2.950444   2.59E-07   3.66E-07
2.958318   2.55E-07   3.60E-07
2.966192   2.53E-07   3.57E-07
2.974066   2.54E-07   3.59E-07
2.981940   2.58E-07   3.64E-07
2.989814   2.59E-07   3.66E-07
2.997688   2.57E-07   3.64E-07
3.005562   2.55E-07   3.60E-07
3.013436   2.55E-07   3.60E-07
3.021310   2.53E-07   3.57E-07
3.029184   2.52E-07   3.56E-07
3.037058   2.51E-07   3.55E-07
3.044932   2.57E-07   3.63E-07
3.052806   2.63E-07   3.72E-07
3.060680   2.64E-07   3.74E-07
3.068554   2.60E-07   3.68E-07
3.076428   2.55E-07   3.60E-07
3.084302   2.54E-07   3.59E-07
3.092176   2.54E-07   3.59E-07
3.100050   2.55E-07   3.61E-07
3.107924   2.53E-07   3.58E-07
3.115798   2.56E-07   3.61E-07
3.123672   2.59E-07   3.66E-07
3.131546   2.63E-07   3.72E-07
3.139420   2.65E-07   3.75E-07
3.147294   2.68E-07   3.80E-07
3.155168   2.68E-07   3.79E-07
3.163042   2.64E-07   3.74E-07
3.170916   2.60E-07   3.67E-07
3.178790   2.60E-07   3.67E-07
3.186664   2.62E-07   3.71E-07
3.194538   2.66E-07   3.76E-07
3.202412   2.70E-07   3.82E-07
3.210286   2.72E-07   3.85E-07
3.218160   2.67E-07   3.78E-07
3.226034   2.58E-07   3.64E-07
3.233908   2.49E-07   3.52E-07
3.241782   2.44E-07   3.46E-07
3.249656   2.46E-07   3.48E-07
3.257530   2.47E-07   3.49E-07
3.265404   2.50E-07   3.53E-07
3.273278   2.52E-07   3.56E-07
3.281152   2.56E-07   3.61E-07
3.289026   2.57E-07   3.64E-07
3.296900   2.57E-07   3.63E-07
3.304774   2.56E-07   3.62E-07
3.312648   2.55E-07   3.60E-07
3.320522   2.55E-07   3.61E-07
3.328396   2.52E-07   3.57E-07
3.336270   2.50E-07   3.53E-07
3.344144   2.48E-07   3.50E-07
3.352018   2.48E-07   3.51E-07
3.359892   2.47E-07   3.50E-07
3.367766   2.48E-07   3.51E-07
3.375640   2.51E-07   3.55E-07
3.383514   2.54E-07   3.59E-07
3.391388   2.52E-07   3.57E-07
3.399262   2.46E-07   3.48E-07
3.407136   2.40E-07   3.39E-07
3.415010   2.38E-07   3.36E-07
3.422884   2.41E-07   3.41E-07
3.430758   2.48E-07   3.51E-07
3.438632   2.50E-07   3.54E-07
3.446506   2.50E-07   3.53E-07
3.454380   2.47E-07   3.50E-07
3.462254   2.47E-07   3.49E-07
3.470128   2.48E-07   3.51E-07
3.478002   2.50E-07   3.54E-07
3.485876   2.54E-07   3.60E-07
3.493750   2.58E-07   3.65E-07